#Distance(A) Planar-Average-Potential(eV)/Densitiy(e/A)
  0.0000             5.44241
  0.0889             5.44325
  0.1778             5.44419
  0.2667             5.44502
  0.3557             5.44596
  0.4446             5.44679
  0.5335             5.44774
  0.6224             5.44856
  0.7113             5.44952
  0.8002             5.45033
  0.8892             5.45129
  0.9781             5.45210
  1.0670             5.45307
  1.1559             5.45387
  1.2448             5.45484
  1.3337             5.45564
  1.4226             5.45662
  1.5116             5.45741
  1.6005             5.45840
  1.6894             5.45918
  1.7783             5.46017
  1.8672             5.46095
  1.9561             5.46195
  2.0450             5.46272
  2.1340             5.46372
  2.2229             5.46449
  2.3118             5.46550
  2.4007             5.46626
  2.4896             5.46727
  2.5785             5.46803
  2.6675             5.46905
  2.7564             5.46980
  2.8453             5.47083
  2.9342             5.47157
  3.0231             5.47260
  3.1120             5.47334
  3.2009             5.47438
  3.2899             5.47511
  3.3788             5.47615
  3.4677             5.47688
  3.5566             5.47793
  3.6455             5.47865
  3.7344             5.47970
  3.8234             5.48042
  3.9123             5.48148
  4.0012             5.48219
  4.0901             5.48326
  4.1790             5.48396
  4.2679             5.48503
  4.3568             5.48572
  4.4458             5.48681
  4.5347             5.48750
  4.6236             5.48858
  4.7125             5.48926
  4.8014             5.49036
  4.8903             5.49103
  4.9792             5.49214
  5.0682             5.49280
  5.1571             5.49391
  5.2460             5.49457
  5.3349             5.49569
  5.4238             5.49633
  5.5127             5.49746
  5.6017             5.49810
  5.6906             5.49924
  5.7795             5.49987
  5.8684             5.50102
  5.9573             5.50164
  6.0462             5.50279
  6.1351             5.50340
  6.2241             5.50457
  6.3130             5.50517
  6.4019             5.50635
  6.4908             5.50694
  6.5797             5.50813
  6.6686             5.50871
  6.7575             5.50990
  6.8465             5.51047
  6.9354             5.51168
  7.0243             5.51223
  7.1132             5.51346
  7.2021             5.51399
  7.2910             5.51523
  7.3800             5.51576
  7.4689             5.51701
  7.5578             5.51751
  7.6467             5.51878
  7.7356             5.51926
  7.8245             5.52054
  7.9134             5.52100
  8.0024             5.52229
  8.0913             5.52272
  8.1802             5.52402
  8.2691             5.52441
  8.3580             5.52571
  8.4469             5.52605
  8.5359             5.52733
  8.6248             5.52759
  8.7137             5.52883
  8.8026             5.52898
  8.8915             5.53013
  8.9804             5.53008
  9.0693             5.53106
  9.1583             5.53070
  9.2472             5.53136
  9.3361             5.53046
  9.4250             5.53054
  9.5139             5.52876
  9.6028             5.52779
  9.6917             5.52447
  9.7807             5.52164
  9.8696             5.51570
  9.9585             5.50958
 10.0474             5.49905
 10.1363             5.48714
 10.2252             5.46865
 10.3142             5.44649
 10.4031             5.41395
 10.4920             5.37363
 10.5809             5.31623
 10.6698             5.24345
 10.7587             5.14262
 10.8476             5.01912
 10.9366             4.83411
 11.0255             4.57053
 11.1144             4.23194
 11.2033             3.78169
 11.2922             3.14345
 11.3811             2.31799
 11.4701             1.33730
 11.5590             0.30373
 11.6479            -0.81245
 11.7368            -2.28225
 11.8257            -4.05189
 11.9146            -5.81223
 12.0035            -7.21901
 12.0925            -8.08303
 12.1814            -8.41892
 12.2703            -8.35104
 12.3592            -8.02878
 12.4481            -7.63012
 12.5370            -7.26568
 12.6259            -6.90967
 12.7149            -6.56378
 12.8038            -6.46443
 12.8927            -6.93816
 12.9816            -8.05726
 13.0705            -9.49196
 13.1594           -10.79465
 13.2484           -11.84293
 13.3373           -12.53897
 13.4262           -12.81063
 13.5151           -12.63265
 13.6040           -12.02238
 13.6929           -11.03466
 13.7818            -9.77696
 13.8708            -8.33237
 13.9597            -7.08610
 14.0486            -6.43939
 14.1375            -6.40696
 14.2264            -6.71185
 14.3153            -7.04814
 14.4043            -7.36859
 14.4932            -7.72743
 14.5821            -8.07086
 14.6710            -8.21906
 14.7599            -8.02234
 14.8488            -7.33868
 14.9377            -6.11687
 15.0267            -4.48499
 15.1156            -2.76441
 15.2045            -1.27671
 15.2934            -0.15735
 15.3823             0.83726
 15.4712             1.82539
 15.5601             2.69396
 15.6491             3.40406
 15.7380             3.91487
 15.8269             4.27908
 15.9158             4.55417
 16.0047             4.75478
 16.0936             4.87072
 16.1826             4.94388
 16.2715             4.98004
 16.3604             4.97965
 16.4493             4.94218
 16.5382             4.86410
 16.6271             4.73948
 16.7160             4.55548
 16.8050             4.29859
 16.8939             3.94126
 16.9828             3.45865
 17.0717             2.79577
 17.1606             1.96196
 17.2495             0.80642
 17.3384            -1.01983
 17.4274            -3.42232
 17.5163            -6.00281
 17.6052            -8.60337
 17.6941           -11.23886
 17.7830           -13.90329
 17.8719           -16.59657
 17.9609           -19.21736
 18.0498           -21.51323
 18.1387           -23.12775
 18.2276           -23.78747
 18.3165           -23.42933
 18.4054           -22.26645
 18.4943           -20.64155
 18.5833           -18.81692
 18.6722           -16.69661
 18.7611           -14.13201
 18.8500           -11.33340
 18.9389            -8.50909
 19.0278            -5.87729
 19.1168            -3.63630
 19.2057            -1.94791
 19.2946            -0.85645
 19.3835            -0.18727
 19.4724             0.26100
 19.5613             0.12420
 19.6502            -0.77048
 19.7392            -2.14729
 19.8281            -3.59731
 19.9170            -4.79552
 20.0059            -5.65147
 20.0948            -6.25256
 20.1837            -6.68011
 20.2726            -7.08423
 20.3616            -7.59546
 20.4505            -8.19298
 20.5394            -8.83651
 20.6283            -9.59198
 20.7172           -10.69221
 20.8061           -12.32065
 20.8951           -14.39908
 20.9840           -16.45904
 21.0729           -18.25752
 21.1618           -19.73688
 21.2507           -20.80648
 21.3396           -21.42975
 21.4285           -21.58227
 21.5175           -21.26313
 21.6064           -20.47872
 21.6953           -19.25872
 21.7842           -17.65507
 21.8731           -15.75957
 21.9620           -13.64208
 22.0510           -11.68082
 22.1399           -10.25226
 22.2288            -9.29926
 22.3177            -8.60595
 22.4066            -7.97434
 22.4955            -7.40264
 22.5844            -6.93003
 22.6734            -6.54139
 22.7623            -6.06095
 22.8512            -5.38226
 22.9401            -4.40819
 23.0290            -3.09856
 23.1179            -1.62565
 23.2068            -0.37625
 23.2958             0.27003
 23.3847             0.14890
 23.4736            -0.39087
 23.5625            -1.16873
 23.6514            -2.46592
 23.7403            -4.35891
 23.8293            -6.75809
 23.9182            -9.47899
 24.0071           -12.31458
 24.0960           -15.05351
 24.1849           -17.47026
 24.2738           -19.44252
 24.3627           -21.19227
 24.4517           -22.68018
 24.5406           -23.59726
 24.6295           -23.61491
 24.7184           -22.61223
 24.8073           -20.72769
 24.8962           -18.28650
 24.9852           -15.62311
 25.0741           -12.94390
 25.1630           -10.30076
 25.2519            -7.69129
 25.3408            -5.10649
 25.4297            -2.55310
 25.5186            -0.29784
 25.6076             1.28479
 25.6965             2.29213
 25.7854             3.06805
 25.8743             3.66842
 25.9632             4.10604
 26.0521             4.43376
 26.1410             4.67289
 26.2300             4.85241
 26.3189             4.98306
 26.4078             5.08191
 26.4967             5.15345
 26.5856             5.20829
 26.6745             5.24760
 26.7635             5.27839
 26.8524             5.30012
 26.9413             5.31773
 27.0302             5.32983
 27.1191             5.34016
 27.2080             5.34699
 27.2969             5.35331
 27.3859             5.35726
 27.4748             5.36134
 27.5637             5.36371
 27.6526             5.36655
 27.7415             5.36807
 27.8304             5.37021
 27.9193             5.37128
 28.0083             5.37302
 28.0972             5.37384
 28.1861             5.37535
 28.2750             5.37606
 28.3639             5.37743
 28.4528             5.37808
 28.5418             5.37936
 28.6307             5.38000
 28.7196             5.38123
 28.8085             5.38185
 28.8974             5.38304
 28.9863             5.38368
 29.0752             5.38484
 29.1642             5.38548
 29.2531             5.38662
 29.3420             5.38727
 29.4309             5.38840
 29.5198             5.38906
 29.6087             5.39016
 29.6977             5.39085
 29.7866             5.39194
 29.8755             5.39263
 29.9644             5.39370
 30.0533             5.39441
 30.1422             5.39547
 30.2311             5.39620
 30.3201             5.39724
 30.4090             5.39798
 30.4979             5.39901
 30.5868             5.39976
 30.6757             5.40078
 30.7646             5.40154
 30.8535             5.40255
 30.9425             5.40331
 31.0314             5.40431
 31.1203             5.40509
 31.2092             5.40609
 31.2981             5.40687
 31.3870             5.40785
 31.4760             5.40865
 31.5649             5.40963
 31.6538             5.41043
 31.7427             5.41139
 31.8316             5.41221
 31.9205             5.41316
 32.0094             5.41398
 32.0984             5.41493
 32.1873             5.41576
 32.2762             5.41670
 32.3651             5.41754
 32.4540             5.41847
 32.5429             5.41932
 32.6319             5.42024
 32.7208             5.42109
 32.8097             5.42201
 32.8986             5.42287
 32.9875             5.42378
 33.0764             5.42465
 33.1653             5.42555
 33.2543             5.42642
 33.3432             5.42732
 33.4321             5.42820
 33.5210             5.42909
 33.6099             5.42998
 33.6988             5.43086
 33.7877             5.43175
 33.8767             5.43263
 33.9656             5.43353
 34.0545             5.43440
 34.1434             5.43531
 34.2323             5.43617
 34.3212             5.43708
 34.4102             5.43794
 34.4991             5.43886
 34.5880             5.43971
 34.6769             5.44064
 34.7658             5.44148
